ion_paramter	temperature
8.0   8.00308694672
7.99199199199   8.00308663303
7.98398398398   8.00308632077
7.97597597598   8.0030860085
7.96796796797   8.00308569623
7.95995995996   8.00308538397
7.95195195195   8.00308504202
7.94394394394   8.00308469947
7.93593593594   8.00308435692
7.92792792793   8.00308401437
7.91991991992   8.00308367056
7.91191191191   8.00308329412
7.9039039039   8.00308291835
7.8958958959   8.00308254257
7.88788788789   8.0030821668
7.87987987988   8.00308179103
7.87187187187   8.00308137908
7.86386386386   8.00308096686
7.85585585586   8.00308055465
7.84784784785   8.00308014243
7.83983983984   8.00307973025
7.83183183183   8.00307928129
7.82382382382   8.0030788291
7.81581581582   8.0030783769
7.80780780781   8.00307792471
7.7997997998   8.00307747144
7.79179179179   8.00307697658
7.78378378378   8.00307648052
7.77577577578   8.00307598447
7.76776776777   8.00307548842
7.75975975976   8.00307499237
7.75175175175   8.00307445156
7.74374374374   8.0030739074
7.73573573574   8.00307336324
7.72772772773   8.00307281908
7.71971971972   8.00307227492
7.71171171171   8.00307168542
7.7037037037   8.00307108848
7.6956956957   8.00307049155
7.68768768769   8.00306989462
7.67967967968   8.00306929705
7.67167167167   8.00306864652
7.66366366366   8.0030679917
7.65565565566   8.00306733687
7.64764764765   8.00306668205
7.63963963964   8.00306602722
7.63163163163   8.00306532038
7.62362362362   8.00306460205
7.61561561562   8.00306388371
7.60760760761   8.00306316538
7.5995995996   8.0030624469
7.59159159159   8.00306166982
7.58358358358   8.00306088182
7.57557557558   8.00306009382
7.56756756757   8.00305930582
7.55955955956   8.00305851784
7.55155155155   8.00305766288
7.54354354354   8.00305679846
7.53553553554   8.00305593404
7.52752752753   8.00305506963
7.51951951952   8.00305420521
7.51151151151   8.00305327717
7.5035035035   8.00305232892
7.4954954955   8.00305138067
7.48748748749   8.00305043241
7.47947947948   8.00304948416
7.47147147147   8.00304846373
7.46346346346   8.00304742351
7.45545545546   8.0030463833
7.44744744745   8.00304534308
7.43943943944   8.00304430287
7.43143143143   8.00304318551
7.42342342342   8.00304204441
7.41541541542   8.00304090331
7.40740740741   8.00303976221
7.3993993994   8.00303862111
7.39139139139   8.00303739205
7.38338338338   8.00303614029
7.37537537538   8.00303488853
7.36736736737   8.00303363677
7.35935935936   8.00303238501
7.35135135135   8.00303105113
7.34334334334   8.00302967797
7.33533533534   8.00302830481
7.32732732733   8.00302693165
7.31931931932   8.00302555849
7.31131131131   8.00302409133
7.3033033033   8.003022585
7.2952952953   8.00302107867
7.28728728729   8.00301957234
7.27927927928   8.003018066
7.27127127127   8.00301645247
7.26326326326   8.00301480006
7.25525525526   8.00301314765
7.24724724725   8.00301149524
7.23923923924   8.00300984283
7.23123123123   8.00300809137
7.22322322322   8.00300627871
7.21521521522   8.00300446604
7.20720720721   8.00300265338
7.1991991992   8.00300084071
7.19119119119   8.00299890623
7.18318318318   8.00299691778
7.17517517518   8.00299492933
7.16716716717   8.00299294088
7.15915915916   8.00299095243
7.15115115115   8.00298884255
7.14314314314   8.00298666127
7.13513513514   8.00298447998
7.12712712713   8.00298229869
7.11911911912   8.0029801174
7.11111111111   8.00297781858
7.1031031031   8.00297542575
7.0950950951   8.00297303292
7.08708708709   8.00297064009
7.07907907908   8.00296824726
7.07107107107   8.0029657079
7.06306306306   8.00296308303
7.05505505506   8.00296045816
7.04704704705   8.00295783329
7.03903903904   8.00295520843
7.03103103103   8.0029524518
7.02302302302   8.00294957237
7.01501501502   8.00294669294
7.00700700701   8.0029438135
6.998998999   8.00294093407
6.99099099099   8.00293788982
6.98298298298   8.00293473117
6.97497497497   8.00293157252
6.96696696697   8.00292841387
6.95895895896   8.00292525523
6.95095095095   8.00292193558
6.94294294294   8.00291847062
6.93493493493   8.00291500566
6.92692692693   8.0029115407
6.91891891892   8.00290807574
6.91091091091   8.00290445712
6.9029029029   8.00290065613
6.89489489489   8.00289685514
6.88688688689   8.00289305416
6.87887887888   8.00288925317
6.87087087087   8.0028852564
6.86286286286   8.00288108683
6.85485485485   8.00287691727
6.84684684685   8.00287274771
6.83883883884   8.00286857815
6.83083083083   8.00286422212
6.82282282282   8.00285964824
6.81481481481   8.00285507436
6.80680680681   8.00285050049
6.7987987988   8.00284592661
6.79079079079   8.00284117821
6.78278278278   8.00283616078
6.77477477477   8.00283114336
6.76676676677   8.00282612594
6.75875875876   8.00282110851
6.75075075075   8.00281588558
6.74274274274   8.00281038161
6.73473473473   8.00280487763
6.72672672673   8.00279937365
6.71871871872   8.00279386967
6.71071071071   8.00278815517
6.7027027027   8.00278211751
6.69469469469   8.00277607986
6.68668668669   8.00277004221
6.67867867868   8.00276400455
6.67067067067   8.00275774349
6.66266266266   8.00275112038
6.65465465465   8.00274449726
6.64664664665   8.00273787414
6.63863863864   8.00273125102
6.63063063063   8.00272437007
6.62262262262   8.00271710484
6.61461461461   8.0027098396
6.60660660661   8.00270257437
6.5985985986   8.00269530914
6.59059059059   8.00268780093
6.58258258258   8.00267983122
6.57457457457   8.0026718615
6.56656656657   8.00266389179
6.55855855856   8.00265592207
6.55055055055   8.00264770915
6.54254254254   8.00263896677
6.53453453453   8.00263022438
6.52652652653   8.002621482
6.51851851852   8.00261273961
6.51051051051   8.00260377997
6.5025025025   8.00259418981
6.49449449449   8.00258459966
6.48648648649   8.00257500951
6.47847847848   8.00256541936
6.47047047047   8.00255557975
6.46246246246   8.00254506018
6.45445445445   8.00253454031
6.44644644645   8.00252402044
6.43843843844   8.00251350057
6.43043043043   8.00250266989
6.42242242242   8.00249113016
6.41441441441   8.00247959043
6.40640640641   8.0024680507
6.3983983984   8.00245651097
6.39039039039   8.00244475879
6.38238238238   8.00243210018
6.37437437437   8.00241944157
6.36636636637   8.00240678296
6.35835835836   8.00239412434
6.35035035035   8.00238116787
6.34234234234   8.00236727572
6.33433433433   8.00235339026
6.32632632633   8.00233950481
6.31831831832   8.00232561935
6.31031031031   8.00231148686
6.3023023023   8.00229624363
6.29429429429   8.00228101216
6.28628628629   8.00226578068
6.27827827828   8.00225054921
6.27027027027   8.0022351241
6.26226226226   8.00221842162
6.25425425425   8.00220171348
6.24624624625   8.00218500533
6.23823823824   8.00216829719
6.23023023023   8.00215133912
6.22222222222   8.00213301123
6.21421421421   8.00211468334
6.20620620621   8.00209635546
6.1981981982   8.00207802757
6.19019019019   8.00205945227
6.18218218218   8.00203931905
6.17417417417   8.00201921544
6.16616616617   8.00199911183
6.15815815816   8.00197900822
6.15015015015   8.00195873589
6.14214214214   8.00193664784
6.13413413413   8.00191459588
6.12612612613   8.00189254391
6.11811811812   8.00187049195
6.11011011011   8.0018483
6.1021021021   8.00182404895
6.09409409409   8.00179985957
6.08608608609   8.00177567018
6.07807807808   8.00175148079
6.07007007007   8.0017272356
6.06206206206   8.00170070185
6.05405405405   8.0016741681
6.04604604605   8.00164763436
6.03803803804   8.00162110061
6.03003003003   8.00159447011
6.02202202202   8.00156531257
6.01401401401   8.0015362089
6.00600600601   8.00150710522
5.997997998   8.00147800155
5.98998998999   8.00144889787
5.98198198198   8.00141698702
5.97397397397   8.00138506198
5.96596596597   8.00135313694
5.95795795796   8.0013212119
5.94994994995   8.00128924567
5.94194194194   8.00125424888
5.93393393393   8.00121923304
5.92592592593   8.00118421719
5.91791791792   8.00114920135
5.90990990991   8.00111418551
5.9019019019   8.00107592894
5.89389389389   8.0010375189
5.88588588589   8.00099910885
5.87787787788   8.0009606988
5.86986986987   8.0009222685
5.86186186186   8.00088033393
5.85385385385   8.00083820655
5.84584584585   8.00079607917
5.83783783784   8.00075395179
5.82982982983   8.00071182441
5.82182182182   8.00066594196
5.81381381381   8.00061973506
5.80580580581   8.00057352817
5.7977977978   8.00052732128
5.78978978979   8.00048111438
5.78178178178   8.0004309019
5.77377377377   8.00038021684
5.76576576577   8.00032953178
5.75775775776   8.00027884673
5.74974974975   8.00022817752
5.74174174174   8.00017322161
5.73373373373   8.00011763455
5.72572572573   8.00006204748
5.71771771772   8.00000646041
5.70970970971   7.99995087335
5.7017017017   7.99989059041
5.69369369369   7.99982962043
5.68568568569   7.99976865045
5.67767767768   7.99970768047
5.66966966967   7.99964676327
5.66166166166   7.99958114581
5.65365365365   7.99951427425
5.64564564565   7.9994474027
5.63763763764   7.99938053114
5.62962962963   7.9993136515
5.62162162162   7.99924138401
5.61361361361   7.99916804347
5.60560560561   7.99909470293
5.5975975976   7.99902136239
5.58958958959   7.99894806152
5.58158158158   7.99886951685
5.57357357357   7.99878907999
5.56556556557   7.99870864314
5.55755755756   7.99862820628
5.54954954955   7.99854776942
5.54154154154   7.99846127272
5.53353353353   7.99837305883
5.52552552553   7.99828484494
5.52411469435   7.99826930364
5.51751751752   7.99818827869
5.50950950951   7.99808996797
5.5015015015   7.99798521685
5.49349349349   7.99787740203
5.48548548549   7.99776956827
5.47747747748   7.99766173451
5.46946946947   7.99755390075
5.46146146146   7.99743840613
5.45345345345   7.99732013045
5.44544544545   7.99720185477
5.43743743744   7.99708357909
5.42942942943   7.99696559986
5.42142142142   7.99683961222
5.41341341341   7.99670991524
5.40540540541   7.99658021827
5.3973973974   7.99645052129
5.38938938939   7.99632129486
5.38138138138   7.99618428076
5.37337337337   7.99604233857
5.36536536537   7.99590016448
5.35735735736   7.99575799038
5.34934934935   7.99561581629
5.34134134134   7.99546543043
5.33333333333   7.99530990904
5.32532532533   7.9951540223
5.31731731732   7.99499813555
5.30930930931   7.9948422488
5.3013013013   7.99467778355
5.29329329329   7.99450741569
5.28528528529   7.99433650195
5.27727727728   7.99416558821
5.26926926927   7.99399467447
5.26126126126   7.99381329109
5.25325325325   7.99362584203
5.24524524525   7.99343839296
5.23780776442   7.99326429863
5.23723723724   7.99325094605
5.22922922923   7.99306508976
5.22122122122   7.99286759926
5.21321321321   7.9926620946
5.20520520521   7.99245658994
5.1971971972   7.99225125236
5.18918918919   7.99204768219
5.18118118118   7.99183163121
5.17317317317   7.99160634536
5.16516516517   7.9913810595
5.15715715716   7.99115612734
5.14914914915   7.99093321915
5.14114114114   7.99069880995
5.13313313313   7.99045433979
5.12512512513   7.99020774398
5.11711711712   7.98996090928
5.10910910911   7.98971407457
5.1011011011   7.98945405413
5.09309309309   7.98918336396
5.08508508509   7.98891267378
5.07707707708   7.98864277056
5.06906906907   7.98837575879
5.06574549298   7.98825929363
5.06106106106   7.98809514118
5.05305305305   7.9878024651
5.04504504505   7.9875068853
5.03703703704   7.98721037344
5.02902902903   7.98691386158
5.02102102102   7.98660267262
5.01301301301   7.98627752517
5.00500500501   7.98595237771
4.996996997   7.98562972983
4.98898898899   7.98530915267
4.98098098098   7.98497332064
4.97297297297   7.98462176808
4.96496496496   7.98426918973
4.95695695696   7.98391312742
4.94894894895   7.9835570651
4.94239308162   7.98325428862
4.94094094094   7.98318722289
4.93293293293   7.98280198813
4.92492492492   7.98241654327
4.91691691692   7.98202700739
4.90890890891   7.98163688627
4.9009009009   7.98123229514
4.89289289289   7.9808101775
4.88488488488   7.98038799095
4.87687687688   7.97996283203
4.86886886887   7.97953543101
4.86086086086   7.97909022705
4.85285285285   7.97862163205
4.84644276218   7.97824928362
4.84484484484   7.97815654615
4.83683683684   7.9776944792
4.82882882883   7.97723241225
4.82082082082   7.97675198077
4.81281281281   7.97624534513
4.8048048048   7.97573870948
4.7967967968   7.97523137753
4.78878878879   7.97472043488
4.78078078078   7.97419112575
4.77277277277   7.97363618475
4.7671174194   7.97324427861
4.76476476476   7.97308124374
4.75675675676   7.97252630274
4.74874874875   7.97196857362
4.74074074074   7.9713873069
4.73273273273   7.97077627335
4.72472472472   7.97016919154
4.71671671672   7.96956210973
4.70870870871   7.96895502791
4.7007007007   7.96832738849
4.6996404517   7.96823927361
4.69269269269   7.9676654145
4.68468468468   7.96700398275
4.67667667668   7.96634255101
4.66866866867   7.96568111927
4.66066066066   7.96499960723
4.65265265265   7.96427606912
4.64464464464   7.96355282344
4.6411175033   7.9632342686
4.63663663664   7.9628330301
4.62862862863   7.96211595429
4.62062062062   7.96138030306
4.61261261261   7.96059789466
4.6046046046   7.95981297744
4.5965965966   7.95902806023
4.58858858859   7.95824314302
4.58845083996   7.9582292636
4.58058058058   7.95743626341
4.57257257257   7.95657598532
4.56456456456   7.95571570723
4.55655655656   7.95485557501
4.54854854855   7.95400444258
4.54137498888   7.95322425859
4.54054054054   7.95313350543
4.53253253253   7.95220310467
4.52452452452   7.951269217
4.51651651652   7.95033020541
4.50850850851   7.94939032599
4.5005005005   7.94842782043
4.49887884196   7.94821925359
4.49249249249   7.94739788414
4.48448448448   7.94636982246
4.47647647648   7.94535123917
4.46846846847   7.94433484541
4.46046046046   7.94329590521
4.45987342912   7.94321424858
4.45245245245   7.94218198347
4.44444444444   7.94106806174
4.43643643644   7.93995399679
4.42842842843   7.93883519331
4.42405879046   7.93820924358
4.42042042042   7.93768804782
4.41241241241   7.93646108492
4.4044044044   7.93524502065
4.3963963964   7.93402895637
4.39096547727   7.93320423857
4.38838838839   7.93278890644
4.38038038038   7.93147412275
4.37237237237   7.93006282594
4.36436436436   7.92865224511
4.36179257267   7.92819923357
4.35635635636   7.927175651
4.34834834835   7.92566782702
4.34034034034   7.92413920935
4.33570240438   7.92319422856
4.33233233233   7.92250786561
4.32432432432   7.92086327914
4.31631631632   7.91921677356
4.31131868447   7.91818922356
4.30830830831   7.91757026799
4.3003003003   7.91590009491
4.29229229229   7.91409658646
4.288241161   7.91318421855
4.28428428428   7.91229468065
4.27627627628   7.91051430632
4.26826826827   7.90874063687
4.2657647219   7.90817921355
4.26026026026   7.90694483132
4.25225225225   7.90500177283
4.24472023531   7.90317420854
4.24424424424   7.90305871434
4.23623623624   7.90111565585
4.22822822823   7.8991718039
4.2241589978   7.89816920354
4.22022022022   7.8972123486
4.21221221221   7.89511784408
4.20473177608   7.89316419853
4.2042042042   7.89302750593
4.1961961962   7.89095265035
4.18818818819   7.88887779477
4.18543835173   7.88815919353
4.18018018018   7.88678510141
4.17217217217   7.8845130028
4.16738303337   7.88315418852
4.16416416416   7.88224090419
4.15615615616   7.8799797305
4.1496052737   7.87814918352
4.14814814815   7.8777421816
4.14014014014   7.87548842542
4.13256427352   7.87314417851
4.13213213213   7.87301051406
4.12412412412   7.87055284149
4.11620248672   7.86813917351
4.11611611612   7.86811285698
4.10810810811   7.86567287248
4.1001001001   7.86322124552
4.09983909842   7.8631341685
4.09209209209   7.86047216842
4.08527343191   7.8581291635
4.08408408408   7.85771300557
4.07607607608   7.85491096906
4.07096950686   7.85312415849
4.06806806807   7.85210893256
4.06006006006   7.84929891069
4.05697979502   7.84811915349
4.05205205205   7.84623180282
4.04404404404   7.84316469496
4.04391106325   7.84311414848
4.03603603604   7.84013656908
4.03065041157   7.83810914348
4.02802802803   7.83712194365
4.02002002002   7.83410444574
4.01759268932   7.83310413847
4.01201201201   7.8308043315
4.0054476188   7.82809913347
4.004004004   7.82746110669
3.995995996   7.82392184984
3.99412317363   7.82309412846
3.98798798799   7.82029342317
3.98315928001   7.81808912346
3.97997997998   7.81663777659
3.97285972316   7.81308411845
3.97197197197   7.81264104956
3.96396396396   7.80864085583
3.96282943079   7.80807911345
3.95595595596   7.80470244939
3.95262515706   7.80307410844
3.94794794795   7.80078754255
3.94238733485   7.79806910344
3.93993993994   7.79687263572
3.9328177578   7.79306409843
3.93193193193   7.79259234784
3.92392392392   7.78832624501
3.92342244701   7.78805909343
3.91591591592   7.7840550686
3.91403343717   7.78305408842
3.90790790791   7.77982435802
3.90450470229   7.77804908342
3.8998998999   7.77564699854
3.89531921071   7.77304407841
3.89189189189   7.77109654676
3.88653450723   7.76803907341
3.88388388388   7.76652635576
3.87776460677   7.7630340684
3.87587587588   7.76195616477
3.86899470631   7.7580290634
3.86786786787   7.7573294933
3.86087107032   7.75302405839
3.85985985986   7.75239834903
3.85329894937   7.74801905339
3.85185185185   7.74705314052
3.84583711359   7.74301404838
3.84384384384   7.74167550299
3.83839757025   7.73800904338
3.83583583584   7.73628907367
3.83096500817   7.73300403837
3.82782782783   7.73089841016
3.82352731159   7.72799903337
3.81981981982   7.7255114408
3.81632775389   7.72299402836
3.81181181181   7.71981286075
3.80923705559   7.71798902336
3.8038038038   7.7141441915
3.80216432694   7.71298401835
3.7957957958   7.70847733757
3.79509159829   7.70797901335
3.78801886964   7.70297400834
3.78778778779   7.70281048364
3.78094614099   7.69796900334
3.77977977978   7.69714362971
3.77423552641   7.69296399833
3.77177177177   7.69110665424
3.76762799927   7.68795899333
3.76376376376   7.68489698264
3.76131171887   7.68295398832
3.75575575576   7.67854636345
3.75499845176   7.67794898331
3.748553972   7.67294397831
3.74774774775   7.67232721155
3.74201153704   7.6679389733
3.73973973974   7.66620103369
3.73584815752   7.6629339683
3.73173173173   7.65949347767
3.72984959281   7.65792896329
3.72377281548   7.65292395829
3.72372372372   7.65287913838
3.71829077651   7.64791895328
3.71571571572   7.64556796814
3.71278802935   7.64291394828
3.70770770771   7.63841074587
3.70713327514   7.63790894327
3.701403855   7.63290393827
3.6996996997   7.63141525257
3.6959615339   7.62789893326
3.69169169169   7.62388249061
3.69065389918   7.62289392826
3.68539629977   7.61788892325
3.68368368368   7.6162666523
3.68011256338   7.61288391825
3.67567567568   7.60868108838
3.67482194903   7.60787891324
3.66938931585   7.60287390824
3.66766766767   7.60131778636
3.66385192327   7.59786890323
3.65965965966   7.594079701
3.65840718157   7.59286389823
3.653251198   7.58785889322
3.65165165165   7.58629571166
3.64817905243   7.58285388822
3.64364364364   7.57821938563
3.64328106322   7.57784888321
3.63838307402   7.57284387821
3.63563563564   7.57004910909
3.63340900142   7.5678388732
3.62824595649   7.5628338682
3.62762762763   7.56223446628
3.62308291155   7.55782886319
3.61961961962   7.55447158205
3.61803271716   7.55282385819
3.61326898304   7.54781885318
3.61161161161   7.54602750096
3.60869097142   7.54281384818
3.60413152425   7.53780884317
3.6036036036   7.53722692849
3.59962052388   7.53280383817
3.5955955956   7.52839210973
3.59505829902   7.52779883316
3.59052424038   7.52279382816
3.58758758759   7.51954518646
3.58601166831   7.51778882315
3.58147487062   7.51278381815
3.57957957958   7.51075568034
3.57690425891   7.50777881314
3.57240624389   7.50277380814
3.57157157157   7.50184505643
3.5679700275   7.49776880313
3.56356356356   7.4927815358
3.56354789158   7.49276379813
3.55912575565   7.48775879312
3.55555555556   7.48371801516
3.55470361973   7.48275378812
3.5503319627   7.47774878311
3.54754754755   7.47450300676
3.54603837921   7.47274377811
3.54174479573   7.4677387731
3.53953953954   7.46516811894
3.5375791212   7.4627337681
3.53354851744   7.45772876309
3.53153153153   7.45522416944
3.52951631723   7.45272375809
3.52533059865   7.44771875308
3.52352352352   7.44555118086
